#    s        x        y     Ue/Vinf    Dstar     Theta      Cf       H
   0.00000  1.00000  0.00000  1.08305  0.169510  0.035634  0.000025     4.757
   0.00838  0.99180  0.00174  1.08387  0.166559  0.035466 -0.003873     4.696
   0.01975  0.98067  0.00406  1.08503  0.163762  0.035233 -0.003821     4.648
   0.03288  0.96782  0.00670  1.08640  0.160655  0.034959 -0.003753     4.595
   0.04741  0.95357  0.00957  1.08798  0.157311  0.034651 -0.003666     4.540
   0.06289  0.93838  0.01256  1.08971  0.153818  0.034318 -0.003557     4.482
   0.07890  0.92265  0.01559  1.09156  0.150262  0.033967 -0.003425     4.424
   0.09521  0.90663  0.01860  1.09352  0.146695  0.033603 -0.003268     4.365
   0.11165  0.89046  0.02157  1.09556  0.143147  0.033231 -0.003084     4.308
   0.12817  0.87420  0.02448  1.09767  0.139637  0.032851 -0.002873     4.251
   0.14472  0.85789  0.02733  1.09986  0.136168  0.032465 -0.002632     4.194
   0.16129  0.84156  0.03012  1.10212  0.132741  0.032073 -0.002358     4.139
   0.17787  0.82521  0.03284  1.10447  0.129366  0.031674 -0.002052     4.084
   0.19445  0.80884  0.03549  1.10690  0.126030  0.031268 -0.001709     4.031
   0.21103  0.79246  0.03807  1.10941  0.122741  0.030856 -0.001329     3.978
   0.22761  0.77607  0.04059  1.11200  0.119499  0.030437 -0.000910     3.926
   0.24420  0.75967  0.04304  1.11469  0.116301  0.030011 -0.000449     3.875
   0.26077  0.74326  0.04542  1.11748  0.113146  0.029577  0.000056     3.825
   0.27735  0.72685  0.04773  1.12036  0.110039  0.029136  0.000607     3.777
   0.29392  0.71043  0.04998  1.12335  0.106968  0.028688  0.001210     3.729
   0.31048  0.69401  0.05216  1.12643  0.103947  0.028233  0.001863     3.682
   0.32704  0.67759  0.05427  1.12962  0.100967  0.027770  0.002571     3.636
   0.34359  0.66117  0.05631  1.13292  0.098029  0.027300  0.003338     3.591
   0.36012  0.64475  0.05827  1.13633  0.095132  0.026823  0.004168     3.547
   0.37665  0.62833  0.06017  1.13985  0.092280  0.026339  0.005061     3.504
   0.39317  0.61192  0.06198  1.14349  0.089465  0.025849  0.006028     3.461
   0.40967  0.59551  0.06373  1.14724  0.086694  0.025351  0.007068     3.420
   0.42615  0.57911  0.06540  1.15111  0.083961  0.024847  0.008190     3.379
   0.44262  0.56271  0.06698  1.15510  0.081270  0.024337  0.009397     3.339
   0.45908  0.54633  0.06849  1.15921  0.078617  0.023820  0.010698     3.300
   0.47551  0.52996  0.06991  1.16344  0.076003  0.023298  0.012100     3.262
   0.49192  0.51360  0.07125  1.16778  0.073426  0.022770  0.013613     3.225
   0.50831  0.49726  0.07250  1.17225  0.070887  0.022237  0.015245     3.188
   0.52468  0.48093  0.07366  1.17683  0.068384  0.021698  0.017010     3.152
   0.54101  0.46463  0.07473  1.18152  0.065920  0.021155  0.018914     3.116
   0.55731  0.44836  0.07570  1.18632  0.063485  0.020608  0.020987     3.081
   0.57357  0.43213  0.07657  1.19123  0.061088  0.020056  0.023235     3.046
   0.58977  0.41594  0.07733  1.19622  0.058723  0.019501  0.025686     3.011
   0.60589  0.39984  0.07799  1.20129  0.056392  0.018944  0.028367     2.977
   0.62188  0.38386  0.07852  1.20639  0.054116  0.018387  0.031254     2.943
   0.63779  0.36796  0.07890  1.21150  0.051910  0.017832  0.034315     2.911
   0.65362  0.35212  0.07912  1.21661  0.049768  0.017277  0.037560     2.881
   0.66941  0.33634  0.07919  1.22171  0.047682  0.016723  0.041023     2.851
   0.68513  0.32061  0.07911  1.22677  0.045655  0.016169  0.044691     2.824
   0.70081  0.30494  0.07886  1.23178  0.043676  0.015615  0.048618     2.797
   0.71642  0.28933  0.07844  1.23670  0.041754  0.015063  0.052767     2.772
   0.73197  0.27379  0.07785  1.24152  0.039874  0.014511  0.057221     2.748
   0.74746  0.25833  0.07708  1.24619  0.038043  0.013960  0.061955     2.725
   0.76286  0.24295  0.07612  1.25069  0.036247  0.013409  0.067062     2.703
   0.77818  0.22767  0.07498  1.25497  0.034495  0.012858  0.072506     2.683
   0.79341  0.21250  0.07363  1.25899  0.032775  0.012307  0.078389     2.663
   0.80853  0.19747  0.07209  1.26268  0.031089  0.011755  0.084717     2.645
   0.82352  0.18258  0.07034  1.26602  0.029425  0.011202  0.091650     2.627
   0.83835  0.16787  0.06837  1.26890  0.027786  0.010647  0.099218     2.610
   0.85301  0.15338  0.06618  1.27123  0.026173  0.010090  0.107467     2.594
   0.86743  0.13916  0.06377  1.27293  0.024573  0.009531  0.116663     2.578
   0.88157  0.12527  0.06115  1.27384  0.022995  0.008971  0.126859     2.563
   0.89532  0.11181  0.05832  1.27381  0.021435  0.008410  0.138333     2.549
   0.90858  0.09890  0.05531  1.27262  0.019906  0.007853  0.151123     2.535
   0.92119  0.08670  0.05215  1.27011  0.018412  0.007304  0.165548     2.521
   0.93299  0.07535  0.04890  1.26605  0.016971  0.006769  0.181720     2.507
   0.94384  0.06500  0.04563  1.26024  0.015595  0.006256  0.199850     2.493
   0.95363  0.05576  0.04241  1.25248  0.014311  0.005773  0.219636     2.479
   0.96234  0.04762  0.03929  1.24270  0.013126  0.005323  0.240902     2.466
   0.97002  0.04054  0.03632  1.23086  0.012035  0.004909  0.264025     2.452
   0.97677  0.03441  0.03349  1.21676  0.011045  0.004529  0.288290     2.439
   0.98270  0.02912  0.03083  1.20028  0.010132  0.004180  0.314803     2.424
   0.98794  0.02453  0.02830  1.18094  0.009308  0.003863  0.341870     2.410
   0.99259  0.02055  0.02589  1.15856  0.008559  0.003571  0.369563     2.397
   0.99676  0.01707  0.02360  1.13275  0.007862  0.003301  0.399294     2.382
   1.00051  0.01404  0.02138  1.10265  0.007230  0.003053  0.428472     2.368
   1.00393  0.01138  0.01924  1.06772  0.006643  0.002823  0.458196     2.353
   1.00705  0.00906  0.01715  1.02693  0.006109  0.002611  0.485674     2.339
   1.00992  0.00704  0.01510  0.97935  0.005612  0.002415  0.511584     2.324
   1.01259  0.00530  0.01308  0.92320  0.005157  0.002236  0.533904     2.306
   1.01508  0.00381  0.01109  0.85725  0.004771  0.002079  0.541611     2.295
   1.01741  0.00258  0.00911  0.78100  0.004410  0.001937  0.542576     2.277
   1.01961  0.00159  0.00714  0.69276  0.004120  0.001819  0.520595     2.266
   1.02170  0.00084  0.00520  0.59322  0.003874  0.001721  0.480261     2.251
   1.02368  0.00034  0.00328  0.48294  0.003706  0.001655  0.413138     2.240
   1.02558  0.00006  0.00140  0.36669  0.003599  0.001607  0.323151     2.239
   1.02740  0.00001 -0.00042  0.24726  0.003496  0.001567  0.225998     2.231
   1.02924  0.00016 -0.00225  0.11973  0.003473  0.001558  0.110302     2.230
   1.03116  0.00056 -0.00413 -0.01436  0.003473  0.001558  0.013229     2.229
   1.03315  0.00122 -0.00601 -0.14841  0.003579  0.001604  0.132498     2.231
   1.03523  0.00215 -0.00788 -0.27597  0.003759  0.001677  0.232469     2.241
   1.03742  0.00334 -0.00971 -0.39057  0.004041  0.001794  0.302894     2.252
   1.03973  0.00480 -0.01150 -0.49215  0.004346  0.001924  0.352668     2.259
   1.04219  0.00653 -0.01325 -0.58032  0.004732  0.002080  0.376141     2.276
   1.04481  0.00853 -0.01495 -0.65585  0.005160  0.002256  0.385798     2.287
   1.04764  0.01081 -0.01661 -0.72080  0.005636  0.002450  0.383350     2.300
   1.05069  0.01339 -0.01825 -0.77673  0.006154  0.002661  0.373798     2.313
   1.05403  0.01631 -0.01986 -0.82454  0.006742  0.002895  0.356759     2.329
   1.05769  0.01960 -0.02147 -0.86589  0.007366  0.003146  0.338923     2.341
   1.06175  0.02333 -0.02307 -0.90168  0.008061  0.003422  0.317925     2.356
   1.06629  0.02758 -0.02468 -0.93295  0.008810  0.003720  0.297350     2.369
   1.07140  0.03242 -0.02630 -0.96005  0.009652  0.004049  0.275023     2.384
   1.07720  0.03799 -0.02793 -0.98386  0.010559  0.004406  0.254507     2.396
   1.08383  0.04440 -0.02958 -1.00463  0.011573  0.004801  0.233755     2.411
   1.09143  0.05182 -0.03124 -1.02261  0.012692  0.005235  0.213917     2.425
   1.10013  0.06037 -0.03289 -1.03796  0.013930  0.005712  0.194929     2.439
   1.11004  0.07015 -0.03450 -1.05077  0.015284  0.006230  0.177217     2.453
   1.12115  0.08115 -0.03602 -1.06135  0.016725  0.006782  0.161403     2.466
   1.13339  0.09331 -0.03741 -1.06970  0.018262  0.007364  0.146837     2.480
   1.14659  0.10645 -0.03865 -1.07615  0.019845  0.007962  0.134141     2.493
   1.16057  0.12039 -0.03970 -1.08102  0.021449  0.008566  0.123165     2.504
   1.17514  0.13494 -0.04057 -1.08453  0.023069  0.009171  0.113483     2.515
   1.19017  0.14995 -0.04126 -1.08703  0.024670  0.009769  0.105226     2.525
   1.20554  0.16531 -0.04177 -1.08874  0.026250  0.010357  0.098062     2.534
   1.22118  0.18095 -0.04212 -1.08982  0.027808  0.010935  0.091790     2.543
   1.23702  0.19679 -0.04234 -1.09042  0.029336  0.011500  0.086306     2.551
   1.25305  0.21282 -0.04242 -1.09068  0.030829  0.012052  0.081513     2.558
   1.26922  0.22898 -0.04239 -1.09066  0.032292  0.012593  0.077260     2.564
   1.28551  0.24528 -0.04226 -1.09044  0.033720  0.013121  0.073507     2.570
   1.30191  0.26167 -0.04204 -1.09008  0.035113  0.013636  0.070174     2.575
   1.31840  0.27816 -0.04174 -1.08965  0.036462  0.014138  0.067254     2.579
   1.33498  0.29474 -0.04137 -1.08912  0.037787  0.014630  0.064582     2.583
   1.35163  0.31138 -0.04094 -1.08860  0.039059  0.015108  0.062273     2.585
   1.36834  0.32809 -0.04046 -1.08805  0.040302  0.015576  0.060168     2.587
   1.38512  0.34486 -0.03994 -1.08753  0.041497  0.016030  0.058328     2.589
   1.40194  0.36167 -0.03937 -1.08704  0.042656  0.016473  0.056672     2.589
   1.41879  0.37851 -0.03878 -1.08660  0.043767  0.016903  0.055222     2.589
   1.43564  0.39535 -0.03816 -1.08622  0.044830  0.017320  0.053948     2.588
   1.45245  0.41214 -0.03751 -1.08592  0.045846  0.017723  0.052831     2.587
   1.46922  0.42890 -0.03682 -1.08561  0.046856  0.018118  0.051715     2.586
   1.48599  0.44566 -0.03608 -1.08531  0.047854  0.018506  0.050638     2.586
   1.50279  0.46243 -0.03530 -1.08500  0.048844  0.018887  0.049589     2.586
   1.51960  0.47923 -0.03448 -1.08470  0.049817  0.019262  0.048595     2.586
   1.53644  0.49605 -0.03362 -1.08440  0.050776  0.019631  0.047650     2.587
   1.55331  0.51289 -0.03272 -1.08411  0.051722  0.019994  0.046750     2.587
   1.57020  0.52976 -0.03180 -1.08383  0.052651  0.020351  0.045900     2.587
   1.58711  0.54664 -0.03085 -1.08355  0.053565  0.020703  0.045092     2.587
   1.60404  0.56354 -0.02988 -1.08329  0.054458  0.021048  0.044346     2.587
   1.62099  0.58046 -0.02888 -1.08305  0.055334  0.021388  0.043639     2.587
   1.63796  0.59740 -0.02786 -1.08282  0.056191  0.021722  0.042981     2.587
   1.65494  0.61435 -0.02683 -1.08261  0.057028  0.022050  0.042368     2.586
   1.67193  0.63131 -0.02577 -1.08243  0.057844  0.022372  0.041799     2.586
   1.68894  0.64828 -0.02470 -1.08227  0.058641  0.022689  0.041272     2.585
   1.70596  0.66526 -0.02362 -1.08214  0.059417  0.023000  0.040782     2.583
   1.72298  0.68226 -0.02253 -1.08204  0.060172  0.023305  0.040330     2.582
   1.74002  0.69925 -0.02142 -1.08197  0.060906  0.023604  0.039914     2.580
   1.75706  0.71626 -0.02031 -1.08192  0.061618  0.023897  0.039534     2.578
   1.77410  0.73327 -0.01918 -1.08191  0.062312  0.024185  0.039183     2.576
   1.79115  0.75028 -0.01804 -1.08193  0.062983  0.024467  0.038865     2.574
   1.80821  0.76729 -0.01690 -1.08199  0.063637  0.024744  0.038569     2.572
   1.82526  0.78431 -0.01574 -1.08207  0.064270  0.025014  0.038303     2.569
   1.84231  0.80132 -0.01458 -1.08219  0.064883  0.025280  0.038060     2.567
   1.85937  0.81833 -0.01340 -1.08234  0.065482  0.025540  0.037834     2.564
   1.87641  0.83534 -0.01222 -1.08251  0.066064  0.025796  0.037624     2.561
   1.89345  0.85233 -0.01102 -1.08272  0.066628  0.026046  0.037436     2.558
   1.91046  0.86931 -0.00982 -1.08295  0.067180  0.026292  0.037254     2.555
   1.92745  0.88624 -0.00860 -1.08320  0.067722  0.026533  0.037081     2.552
   1.94435  0.90311 -0.00738 -1.08346  0.068259  0.026770  0.036903     2.550
   1.96111  0.91982 -0.00615 -1.08373  0.068786  0.027002  0.036725     2.547
   1.97757  0.93623 -0.00493 -1.08399  0.069311  0.027229  0.036534     2.545
   1.99344  0.95206 -0.00373 -1.08422  0.069841  0.027449  0.036309     2.544
   2.00831  0.96689 -0.00260 -1.08438  0.070378  0.027659  0.036034     2.544
   2.02166  0.98019 -0.00157 -1.08442  0.070948  0.027858  0.035656     2.547
   2.03312  0.99163 -0.00067 -1.08430  0.071559  0.028044  0.035158     2.552
   2.04153  1.00000  0.00000 -1.08305  0.073072  0.028316  0.033293     2.581
   2.04153  1.00010 -0.00001  1.08305  0.242582  0.063949  0.000000     3.793
   2.04992  1.00848 -0.00051  1.08246  0.239779  0.064150  0.000000     3.738
   2.05957  1.01812 -0.00099  1.08172  0.238658  0.064401  0.000000     3.706
   2.07067  1.02921 -0.00147  1.08087  0.237637  0.064690  0.000000     3.673
   2.08345  1.04197 -0.00196  1.07989  0.236641  0.065022  0.000000     3.639
   2.09814  1.05665 -0.00246  1.07878  0.235600  0.065400  0.000000     3.602
   2.11503  1.07354 -0.00295  1.07751  0.234467  0.065831  0.000000     3.562
   2.13447  1.09297 -0.00343  1.07607  0.233200  0.066320  0.000000     3.516
   2.15682  1.11532 -0.00389  1.07445  0.231758  0.066873  0.000000     3.466
   2.18254  1.14103 -0.00431  1.07261  0.230089  0.067496  0.000000     3.409
   2.21211  1.17061 -0.00467  1.07056  0.228136  0.068195  0.000000     3.345
   2.24613  1.20463 -0.00494  1.06827  0.225828  0.068974  0.000000     3.274
   2.28526  1.24376 -0.00510  1.06574  0.223075  0.069836  0.000000     3.194
   2.33027  1.28877 -0.00509  1.06297  0.219770  0.070780  0.000000     3.105
   2.38204  1.34054 -0.00487  1.05997  0.215772  0.071797  0.000000     3.005
   2.44159  1.40008 -0.00437  1.05680  0.210901  0.072869  0.000000     2.894
   2.51009  1.46857 -0.00353  1.05356  0.204914  0.073958  0.000000     2.771
   2.58887  1.54735 -0.00225  1.05046  0.197460  0.074990  0.000000     2.633
   2.67949  1.63795 -0.00043  1.04793  0.187971  0.075820  0.000000     2.479
   2.78373  1.74215  0.00205  1.04699  0.175292  0.076117  0.000000     2.303
   2.90362  1.86200  0.00534  1.05028  0.157299  0.075124  0.000000     2.094
   3.04153  1.99984  0.00960  1.09780  0.104958  0.063282  0.000000     1.659
