#    s        x        y     Ue/Vinf    Dstar     Theta      Cf       H
   0.00000  1.00000  0.00000  1.07238  0.149244  0.025065 -0.000217     5.954
   0.00838  0.99180  0.00174  1.07292  0.146208  0.024975 -0.002963     5.854
   0.01975  0.98067  0.00406  1.07375  0.143484  0.024839 -0.002996     5.776
   0.03288  0.96782  0.00670  1.07474  0.140475  0.024680 -0.003031     5.692
   0.04741  0.95357  0.00957  1.07589  0.137249  0.024498 -0.003069     5.602
   0.06289  0.93838  0.01256  1.07717  0.133883  0.024300 -0.003103     5.510
   0.07890  0.92265  0.01559  1.07855  0.130458  0.024090 -0.003134     5.415
   0.09521  0.90663  0.01860  1.08002  0.127024  0.023871 -0.003164     5.321
   0.11165  0.89046  0.02157  1.08158  0.123607  0.023644 -0.003191     5.228
   0.12817  0.87420  0.02448  1.08322  0.120229  0.023411 -0.003212     5.136
   0.14472  0.85789  0.02733  1.08495  0.116890  0.023171 -0.003225     5.045
   0.16129  0.84156  0.03012  1.08676  0.113594  0.022924 -0.003225     4.955
   0.17787  0.82521  0.03284  1.08866  0.110349  0.022671 -0.003211     4.867
   0.19445  0.80884  0.03549  1.09065  0.107145  0.022412 -0.003179     4.781
   0.21103  0.79246  0.03807  1.09274  0.103991  0.022147 -0.003126     4.696
   0.22761  0.77607  0.04059  1.09494  0.100885  0.021874 -0.003050     4.612
   0.24420  0.75967  0.04304  1.09723  0.097827  0.021596 -0.002947     4.530
   0.26077  0.74326  0.04542  1.09964  0.094815  0.021310 -0.002814     4.449
   0.27735  0.72685  0.04773  1.10216  0.091856  0.021018 -0.002647     4.370
   0.29392  0.71043  0.04998  1.10480  0.088939  0.020720 -0.002443     4.292
   0.31048  0.69401  0.05216  1.10755  0.086077  0.020416 -0.002197     4.216
   0.32704  0.67759  0.05427  1.11041  0.083263  0.020107 -0.001906     4.141
   0.34359  0.66117  0.05631  1.11340  0.080498  0.019791 -0.001565     4.067
   0.36012  0.64475  0.05827  1.11653  0.077780  0.019468 -0.001171     3.995
   0.37665  0.62833  0.06017  1.11979  0.075117  0.019139 -0.000720     3.925
   0.39317  0.61192  0.06198  1.12320  0.072497  0.018802 -0.000206     3.856
   0.40967  0.59551  0.06373  1.12676  0.069931  0.018458  0.000372     3.789
   0.42615  0.57911  0.06540  1.13048  0.067411  0.018107  0.001022     3.723
   0.44262  0.56271  0.06698  1.13437  0.064943  0.017748  0.001747     3.659
   0.45908  0.54633  0.06849  1.13841  0.062523  0.017382  0.002554     3.597
   0.47551  0.52996  0.06991  1.14264  0.060153  0.017009  0.003447     3.537
   0.49192  0.51360  0.07125  1.14703  0.057830  0.016629  0.004435     3.478
   0.50831  0.49726  0.07250  1.15159  0.055555  0.016242  0.005524     3.420
   0.52468  0.48093  0.07366  1.15633  0.053328  0.015850  0.006725     3.365
   0.54101  0.46463  0.07473  1.16124  0.051151  0.015451  0.008043     3.311
   0.55731  0.44836  0.07570  1.16632  0.049014  0.015047  0.009500     3.258
   0.57357  0.43213  0.07657  1.17156  0.046925  0.014638  0.011103     3.206
   0.58977  0.41594  0.07733  1.17694  0.044880  0.014224  0.012871     3.155
   0.60589  0.39984  0.07799  1.18246  0.042879  0.013808  0.014830     3.105
   0.62188  0.38386  0.07852  1.18806  0.040942  0.013391  0.016956     3.057
   0.63779  0.36796  0.07890  1.19372  0.039084  0.012974  0.019222     3.012
   0.65362  0.35212  0.07912  1.19942  0.037298  0.012558  0.021635     2.970
   0.66941  0.33634  0.07919  1.20515  0.035576  0.012142  0.024214     2.930
   0.68513  0.32061  0.07911  1.21087  0.033922  0.011726  0.026950     2.893
   0.70081  0.30494  0.07886  1.21656  0.032323  0.011312  0.029878     2.857
   0.71642  0.28933  0.07844  1.22217  0.030788  0.010900  0.032966     2.825
   0.73197  0.27379  0.07785  1.22770  0.029300  0.010488  0.036274     2.794
   0.74746  0.25833  0.07708  1.23308  0.027868  0.010079  0.039771     2.765
   0.76286  0.24295  0.07612  1.23830  0.026476  0.009671  0.043535     2.738
   0.77818  0.22767  0.07498  1.24328  0.025132  0.009265  0.047523     2.712
   0.79341  0.21250  0.07363  1.24800  0.023824  0.008860  0.051806     2.689
   0.80853  0.19747  0.07209  1.25239  0.022555  0.008457  0.056383     2.667
   0.82352  0.18258  0.07034  1.25643  0.021310  0.008053  0.061375     2.646
   0.83835  0.16787  0.06837  1.26001  0.020092  0.007649  0.066799     2.627
   0.85301  0.15338  0.06618  1.26304  0.018905  0.007246  0.072637     2.609
   0.86743  0.13916  0.06377  1.26546  0.017732  0.006842  0.079139     2.592
   0.88157  0.12527  0.06115  1.26712  0.016581  0.006437  0.086297     2.576
   0.89532  0.11181  0.05832  1.26790  0.015447  0.006034  0.094331     2.560
   0.90858  0.09890  0.05531  1.26758  0.014340  0.005634  0.103237     2.546
   0.92119  0.08670  0.05215  1.26602  0.013262  0.005239  0.113224     2.531
   0.93299  0.07535  0.04890  1.26304  0.012221  0.004855  0.124459     2.517
   0.94384  0.06500  0.04563  1.25844  0.011227  0.004486  0.137115     2.503
   0.95363  0.05576  0.04241  1.25199  0.010300  0.004138  0.150899     2.489
   0.96234  0.04762  0.03929  1.24365  0.009446  0.003815  0.165710     2.476
   0.97002  0.04054  0.03632  1.23340  0.008655  0.003516  0.182031     2.462
   0.97677  0.03441  0.03349  1.22098  0.007938  0.003242  0.199135     2.449
   0.98270  0.02912  0.03083  1.20632  0.007272  0.002989  0.218285     2.433
   0.98794  0.02453  0.02830  1.18880  0.006674  0.002759  0.237752     2.419
   0.99259  0.02055  0.02589  1.16832  0.006129  0.002547  0.257786     2.406
   0.99676  0.01707  0.02360  1.14451  0.005618  0.002351  0.280055     2.390
   1.00051  0.01404  0.02138  1.11632  0.005157  0.002170  0.301658     2.376
   1.00393  0.01138  0.01924  1.08331  0.004725  0.002002  0.324563     2.360
   1.00705  0.00906  0.01715  1.04429  0.004335  0.001847  0.345513     2.347
   1.00992  0.00704  0.01510  0.99836  0.003966  0.001702  0.366832     2.330
   1.01259  0.00530  0.01308  0.94319  0.003628  0.001571  0.386318     2.310
   1.01508  0.00381  0.01109  0.87744  0.003348  0.001456  0.393248     2.299
   1.01741  0.00258  0.00911  0.80072  0.003077  0.001350  0.397837     2.279
   1.01961  0.00159  0.00714  0.71047  0.002865  0.001263  0.383170     2.268
   1.02170  0.00084  0.00520  0.60774  0.002683  0.001191  0.354785     2.253
   1.02368  0.00034  0.00328  0.49244  0.002559  0.001143  0.305607     2.238
   1.02558  0.00006  0.00140  0.37060  0.002490  0.001111  0.235648     2.241
   1.02740  0.00001 -0.00042  0.24560  0.002410  0.001081  0.162907     2.230
   1.02924  0.00016 -0.00225  0.11174  0.002403  0.001078  0.074374     2.230
   1.03116  0.00056 -0.00413 -0.02831  0.002403  0.001078  0.018871     2.230
   1.03315  0.00122 -0.00601 -0.16863  0.002472  0.001107  0.108895     2.232
   1.03523  0.00215 -0.00788 -0.30173  0.002601  0.001160  0.183521     2.242
   1.03742  0.00334 -0.00971 -0.41974  0.002814  0.001248  0.232934     2.256
   1.03973  0.00480 -0.01150 -0.52316  0.003037  0.001343  0.267719     2.261
   1.04219  0.00653 -0.01325 -0.61197  0.003322  0.001457  0.281501     2.280
   1.04481  0.00853 -0.01495 -0.68697  0.003637  0.001587  0.285283     2.292
   1.04764  0.01081 -0.01661 -0.75078  0.003985  0.001728  0.280950     2.306
   1.05069  0.01339 -0.01825 -0.80526  0.004363  0.001882  0.271772     2.319
   1.05403  0.01631 -0.01986 -0.85112  0.004798  0.002053  0.256800     2.337
   1.05769  0.01960 -0.02147 -0.89038  0.005253  0.002236  0.242489     2.349
   1.06175  0.02333 -0.02307 -0.92394  0.005764  0.002437  0.225792     2.365
   1.06629  0.02758 -0.02468 -0.95301  0.006309  0.002653  0.210142     2.378
   1.07140  0.03242 -0.02630 -0.97782  0.006928  0.002893  0.193071     2.395
   1.07720  0.03799 -0.02793 -0.99946  0.007587  0.003152  0.178079     2.407
   1.08383  0.04440 -0.02958 -1.01810  0.008326  0.003438  0.162813     2.422
   1.09143  0.05182 -0.03124 -1.03404  0.009140  0.003752  0.148441     2.436
   1.10013  0.06037 -0.03289 -1.04740  0.010042  0.004097  0.134763     2.451
   1.11004  0.07015 -0.03450 -1.05834  0.011027  0.004472  0.122096     2.466
   1.12115  0.08115 -0.03602 -1.06721  0.012071  0.004870  0.110966     2.479
   1.13339  0.09331 -0.03741 -1.07399  0.013189  0.005290  0.100654     2.493
   1.14659  0.10645 -0.03865 -1.07902  0.014339  0.005722  0.091744     2.506
   1.16057  0.12039 -0.03970 -1.08265  0.015501  0.006157  0.084104     2.518
   1.17514  0.13494 -0.04057 -1.08504  0.016680  0.006594  0.077305     2.530
   1.19017  0.14995 -0.04126 -1.08655  0.017841  0.007025  0.071581     2.540
   1.20554  0.16531 -0.04177 -1.08738  0.018989  0.007449  0.066611     2.549
   1.22118  0.18095 -0.04212 -1.08767  0.020120  0.007865  0.062261     2.558
   1.23702  0.19679 -0.04234 -1.08757  0.021232  0.008273  0.058456     2.566
   1.25305  0.21282 -0.04242 -1.08718  0.022316  0.008671  0.055152     2.574
   1.26922  0.22898 -0.04239 -1.08658  0.023380  0.009061  0.052213     2.580
   1.28551  0.24528 -0.04226 -1.08582  0.024419  0.009442  0.049625     2.586
   1.30191  0.26167 -0.04204 -1.08498  0.025431  0.009814  0.047337     2.591
   1.31840  0.27816 -0.04174 -1.08410  0.026407  0.010176  0.045354     2.595
   1.33498  0.29474 -0.04137 -1.08317  0.027369  0.010530  0.043522     2.599
   1.35163  0.31138 -0.04094 -1.08228  0.028287  0.010874  0.041973     2.601
   1.36834  0.32809 -0.04046 -1.08139  0.029184  0.011211  0.040554     2.603
   1.38512  0.34486 -0.03994 -1.08057  0.030042  0.011537  0.039334     2.604
   1.40194  0.36167 -0.03937 -1.07981  0.030871  0.011855  0.038243     2.604
   1.41879  0.37851 -0.03878 -1.07913  0.031662  0.012163  0.037302     2.603
   1.43564  0.39535 -0.03816 -1.07855  0.032414  0.012460  0.036493     2.601
   1.45245  0.41214 -0.03751 -1.07807  0.033126  0.012747  0.035803     2.599
   1.46922  0.42890 -0.03682 -1.07761  0.033840  0.013028  0.035086     2.597
   1.48599  0.44566 -0.03608 -1.07715  0.034548  0.013305  0.034382     2.597
   1.50279  0.46243 -0.03530 -1.07670  0.035254  0.013577  0.033683     2.597
   1.51960  0.47923 -0.03448 -1.07626  0.035950  0.013845  0.033017     2.597
   1.53644  0.49605 -0.03362 -1.07583  0.036636  0.014108  0.032381     2.597
   1.55331  0.51289 -0.03272 -1.07540  0.037315  0.014368  0.031768     2.597
   1.57020  0.52976 -0.03180 -1.07499  0.037981  0.014624  0.031192     2.597
   1.58711  0.54664 -0.03085 -1.07459  0.038638  0.014875  0.030641     2.597
   1.60404  0.56354 -0.02988 -1.07421  0.039277  0.015122  0.030137     2.597
   1.62099  0.58046 -0.02888 -1.07385  0.039906  0.015365  0.029659     2.597
   1.63796  0.59740 -0.02786 -1.07352  0.040519  0.015604  0.029215     2.597
   1.65494  0.61435 -0.02683 -1.07321  0.041117  0.015838  0.028805     2.596
   1.67193  0.63131 -0.02577 -1.07294  0.041698  0.016069  0.028428     2.595
   1.68894  0.64828 -0.02470 -1.07269  0.042264  0.016294  0.028080     2.594
   1.70596  0.66526 -0.02362 -1.07248  0.042814  0.016516  0.027762     2.592
   1.72298  0.68226 -0.02253 -1.07230  0.043347  0.016733  0.027472     2.591
   1.74002  0.69925 -0.02142 -1.07216  0.043862  0.016945  0.027209     2.588
   1.75706  0.71626 -0.02031 -1.07206  0.044360  0.017153  0.026974     2.586
   1.77410  0.73327 -0.01918 -1.07200  0.044842  0.017357  0.026761     2.584
   1.79115  0.75028 -0.01804 -1.07199  0.045305  0.017556  0.026573     2.581
   1.80821  0.76729 -0.01690 -1.07201  0.045754  0.017751  0.026403     2.578
   1.82526  0.78431 -0.01574 -1.07207  0.046186  0.017941  0.026255     2.574
   1.84231  0.80132 -0.01458 -1.07218  0.046601  0.018127  0.026127     2.571
   1.85937  0.81833 -0.01340 -1.07233  0.047004  0.018309  0.026011     2.567
   1.87641  0.83534 -0.01222 -1.07251  0.047393  0.018487  0.025908     2.564
   1.89345  0.85233 -0.01102 -1.07274  0.047765  0.018661  0.025823     2.560
   1.91046  0.86931 -0.00982 -1.07299  0.048129  0.018831  0.025743     2.556
   1.92745  0.88624 -0.00860 -1.07328  0.048484  0.018998  0.025668     2.552
   1.94435  0.90311 -0.00738 -1.07358  0.048835  0.019161  0.025588     2.549
   1.96111  0.91982 -0.00615 -1.07390  0.049181  0.019321  0.025505     2.545
   1.97757  0.93623 -0.00493 -1.07420  0.049528  0.019478  0.025406     2.543
   1.99344  0.95206 -0.00373 -1.07446  0.049889  0.019630  0.025267     2.541
   2.00831  0.96689 -0.00260 -1.07463  0.050272  0.019778  0.025070     2.542
   2.02166  0.98019 -0.00157 -1.07462  0.050714  0.019924  0.024750     2.545
   2.03312  0.99163 -0.00067 -1.07437  0.051231  0.020066  0.024287     2.553
   2.04153  1.00000  0.00000 -1.07238  0.052832  0.020323  0.022308     2.600
   2.04153  1.00010 -0.00001  1.07238  0.202076  0.045387  0.000000     4.452
   2.04992  1.00848 -0.00051  1.07109  0.198863  0.045738  0.000000     4.348
   2.05957  1.01812 -0.00099  1.06980  0.197516  0.046086  0.000000     4.286
   2.07067  1.02921 -0.00147  1.06835  0.196259  0.046479  0.000000     4.223
   2.08345  1.04197 -0.00196  1.06672  0.195007  0.046922  0.000000     4.156
   2.09814  1.05665 -0.00246  1.06488  0.193672  0.047420  0.000000     4.084
   2.11503  1.07354 -0.00295  1.06286  0.192196  0.047967  0.000000     4.007
   2.13447  1.09297 -0.00343  1.06064  0.190528  0.048568  0.000000     3.923
   2.15682  1.11532 -0.00389  1.05814  0.188629  0.049246  0.000000     3.830
   2.18254  1.14103 -0.00431  1.05533  0.186443  0.050010  0.000000     3.728
   2.21211  1.17061 -0.00467  1.05217  0.183910  0.050866  0.000000     3.616
   2.24613  1.20463 -0.00494  1.04866  0.180960  0.051821  0.000000     3.492
   2.28526  1.24376 -0.00510  1.04477  0.177512  0.052875  0.000000     3.357
   2.33027  1.28877 -0.00509  1.04052  0.173480  0.054028  0.000000     3.211
   2.38204  1.34054 -0.00487  1.03593  0.168763  0.055268  0.000000     3.054
   2.44159  1.40008 -0.00437  1.03107  0.163258  0.056573  0.000000     2.886
   2.51009  1.46857 -0.00353  1.02609  0.156850  0.057902  0.000000     2.709
   2.58887  1.54735 -0.00225  1.02124  0.149408  0.059184  0.000000     2.524
   2.67949  1.63795 -0.00043  1.01695  0.140752  0.060297  0.000000     2.334
   2.78373  1.74215  0.00205  1.01414  0.130474  0.061008  0.000000     2.139
   2.90362  1.86200  0.00534  1.01486  0.117759  0.060834  0.000000     1.936
   3.04153  1.99984  0.00960  1.04876  0.086532  0.053740  0.000000     1.610
