#    s        x        y     Ue/Vinf    Dstar     Theta      Cf       H
   0.00000  0.98481 -0.17365  0.90827  0.025722  0.009321  0.000153     2.760
   0.00934  0.97605 -0.17040  0.91506  0.022571  0.009004  0.000271     2.507
   0.02153  0.96460 -0.16620  0.92263  0.020571  0.008678  0.000362     2.371
   0.03528  0.95168 -0.16150  0.93219  0.018647  0.008298  0.000469     2.247
   0.05048  0.93739 -0.15635  0.94353  0.016861  0.007883  0.000592     2.139
   0.06688  0.92194 -0.15084  0.95654  0.015220  0.007448  0.000731     2.044
   0.08419  0.90562 -0.14508  0.97080  0.013756  0.007012  0.000881     1.962
   0.10213  0.88868 -0.13918  0.98585  0.012476  0.006592  0.001040     1.893
   0.12047  0.87133 -0.13320  1.00127  0.011374  0.006198  0.001202     1.835
   0.13908  0.85372 -0.12721  1.01670  0.010430  0.005836  0.001364     1.787
   0.15783  0.83595 -0.12122  1.03193  0.009621  0.005506  0.001524     1.747
   0.17668  0.81806 -0.11527  1.04684  0.008925  0.005205  0.001679     1.715
   0.19558  0.80011 -0.10936  1.06137  0.008321  0.004932  0.001830     1.687
   0.21451  0.78211 -0.10351  1.07551  0.007792  0.004682  0.001977     1.664
   0.23345  0.76408 -0.09770  1.08928  0.007324  0.004453  0.002119     1.645
   0.25240  0.74602 -0.09196  1.10274  0.006906  0.004242  0.002257     1.628
   0.27134  0.72795 -0.08628  1.11593  0.006529  0.004046  0.002392     1.614
   0.29028  0.70986 -0.08065  1.12891  0.006185  0.003862  0.002524     1.601
   0.30921  0.69177 -0.07510  1.14172  0.005870  0.003690  0.002654     1.591
   0.32812  0.67367 -0.06961  1.15441  0.005578  0.003527  0.002784     1.581
   0.34701  0.65557 -0.06419  1.16705  0.005306  0.003373  0.002913     1.573
   0.36588  0.63748 -0.05884  1.17966  0.005051  0.003226  0.003042     1.566
   0.38472  0.61939 -0.05356  1.19229  0.004810  0.003086  0.003172     1.559
   0.40353  0.60132 -0.04836  1.20498  0.004583  0.002951  0.003304     1.553
   0.42230  0.58326 -0.04324  1.21776  0.004366  0.002821  0.003438     1.548
   0.44104  0.56521 -0.03821  1.23067  0.004160  0.002696  0.003574     1.543
   0.45973  0.54718 -0.03327  1.24373  0.003962  0.002575  0.003714     1.538
   0.47837  0.52918 -0.02842  1.25699  0.003773  0.002459  0.003857     1.534
   0.49696  0.51121 -0.02367  1.27047  0.003590  0.002345  0.004006     1.531
   0.51550  0.49327 -0.01902  1.28418  0.003414  0.002235  0.004159     1.528
   0.53397  0.47536 -0.01449  1.29818  0.003245  0.002128  0.004318     1.524
   0.55237  0.45750 -0.01006  1.31247  0.003081  0.002025  0.004483     1.522
   0.57070  0.43968 -0.00577  1.32710  0.002922  0.001923  0.004656     1.519
   0.58895  0.42191 -0.00159  1.34208  0.002769  0.001825  0.004836     1.517
   0.60712  0.40420  0.00244  1.35745  0.002620  0.001729  0.005026     1.515
   0.62519  0.38655  0.00633  1.37324  0.002476  0.001636  0.005225     1.513
   0.64316  0.36898  0.01007  1.38948  0.002336  0.001545  0.005434     1.511
   0.66102  0.35148  0.01364  1.40622  0.002200  0.001457  0.005657     1.510
   0.67875  0.33408  0.01705  1.42349  0.002068  0.001371  0.005892     1.508
   0.69635  0.31677  0.02027  1.44133  0.001940  0.001287  0.006144     1.507
   0.71380  0.29959  0.02330  1.45979  0.001816  0.001205  0.006413     1.506
   0.73109  0.28254  0.02613  1.47893  0.001695  0.001126  0.006702     1.505
   0.74818  0.26564  0.02875  1.49880  0.001577  0.001049  0.007016     1.504
   0.76506  0.24893  0.03113  1.51947  0.001463  0.000974  0.007358     1.503
   0.78169  0.23244  0.03328  1.54100  0.001352  0.000901  0.007734     1.502
   0.79802  0.21622  0.03516  1.56344  0.001245  0.000830  0.008152     1.500
   0.81401  0.20032  0.03678  1.58686  0.001140  0.000762  0.008620     1.497
   0.82958  0.18480  0.03812  1.61128  0.001039  0.000696  0.009151     1.494
   0.84465  0.16976  0.03917  1.63672  0.000942  0.000632  0.009757     1.489
   0.85914  0.15529  0.03993  1.66313  0.000848  0.000572  0.010456     1.483
   0.87295  0.14149  0.04039  1.69043  0.000759  0.000515  0.011263     1.476
   0.88598  0.12846  0.04056  1.71843  0.000675  0.000460  0.012186     1.467
   0.89817  0.11628  0.04047  1.74685  0.000598  0.000410  0.013216     1.457
   0.90945  0.10500  0.04014  1.77530  0.000527  0.000363  0.014287     1.451
   0.91982  0.09464  0.03960  1.80317  0.000467  0.000321  0.015188     1.455
   0.92930  0.08519  0.03888  1.82968  0.000423  0.000284  0.015323     1.490
   0.93793  0.07661  0.03801  1.85466  0.000409  0.000253  0.013281     1.617
   0.94578  0.06882  0.03702  1.88406  0.000456  0.000227  0.007962     2.008
   0.95291  0.06177  0.03593  1.95853  0.000615  0.000186  0.001142     3.305
   0.95942  0.05537  0.03477  2.03372  0.000729  0.000148 -0.000929     4.925
   0.96537  0.04955  0.03353  2.05113  0.000699  0.000140 -0.000999     4.982
   0.97082  0.04425  0.03224  2.06904  0.000626  0.000133 -0.000995     4.714
   0.97584  0.03942  0.03090  2.08898  0.000542  0.000125 -0.000800     4.327
   0.98048  0.03499  0.02951  2.11145  0.000462  0.000118 -0.000234     3.931
   0.98478  0.03093  0.02808  2.13679  0.000393  0.000110  0.000794     3.588
   0.98880  0.02720  0.02661  2.16455  0.000337  0.000102  0.002220     3.321
   0.99255  0.02376  0.02509  2.19330  0.000292  0.000094  0.003948     3.118
   0.99608  0.02060  0.02353  2.22146  0.000255  0.000086  0.005929     2.962
   0.99940  0.01770  0.02191  2.24764  0.000224  0.000079  0.008165     2.838
   1.00254  0.01503  0.02025  2.27048  0.000198  0.000072  0.010675     2.736
   1.00552  0.01259  0.01854  2.28843  0.000176  0.000066  0.013476     2.650
   1.00836  0.01037  0.01677  2.29963  0.000157  0.000061  0.016564     2.574
   1.01108  0.00836  0.01495  2.30186  0.000141  0.000056  0.019891     2.509
   1.01367  0.00656  0.01307  2.29261  0.000127  0.000052  0.023355     2.451
   1.01617  0.00497  0.01115  2.26924  0.000115  0.000048  0.026784     2.401
   1.01858  0.00360  0.00917  2.22945  0.000106  0.000045  0.029938     2.358
   1.02090  0.00244  0.00716  2.17171  0.000098  0.000042  0.032539     2.321
   1.02315  0.00149  0.00512  2.09591  0.000092  0.000040  0.034325     2.290
   1.02533  0.00075  0.00307  2.00347  0.000088  0.000039  0.035111     2.266
   1.02745  0.00020  0.00102  1.89851  0.000086  0.000038  0.034629     2.254
   1.02953 -0.00016 -0.00102  1.78602  0.000084  0.000037  0.033509     2.245
   1.03164 -0.00035 -0.00314  1.66286  0.000083  0.000037  0.032088     2.233
   1.03383 -0.00035 -0.00532  1.52749  0.000082  0.000037  0.029963     2.222
   1.03608 -0.00016 -0.00756  1.38322  0.000083  0.000037  0.027203     2.213
   1.03840  0.00025 -0.00985  1.23377  0.000084  0.000038  0.023980     2.206
   1.04081  0.00086 -0.01217  1.08338  0.000086  0.000039  0.020543     2.202
   1.04330  0.00169 -0.01453  0.93583  0.000090  0.000041  0.017103     2.201
   1.04590  0.00274 -0.01691  0.79398  0.000094  0.000043  0.013880     2.200
   1.04862  0.00401 -0.01931  0.65986  0.000099  0.000045  0.010913     2.203
   1.05145  0.00549 -0.02173  0.53427  0.000105  0.000047  0.008380     2.202
   1.05444  0.00720 -0.02417  0.41784  0.000111  0.000050  0.006103     2.212
   1.05758  0.00914 -0.02665  0.30997  0.000118  0.000053  0.004308     2.206
   1.06090  0.01131 -0.02915  0.21073  0.000126  0.000057  0.002680     2.226
   1.06443  0.01375 -0.03170  0.11884  0.000132  0.000060  0.001459     2.216
   1.06818  0.01646 -0.03431  0.03432  0.000147  0.000066  0.000374     2.230
   1.07219  0.01946 -0.03697 -0.04404  0.000147  0.000066  0.000479     2.230
   1.07650  0.02278 -0.03970 -0.11693  0.000163  0.000073  0.001125     2.249
   1.08114  0.02647 -0.04252 -0.18443  0.000171  0.000077  0.001720     2.233
   1.08616  0.03056 -0.04543 -0.24776  0.000184  0.000081  0.002097     2.259
   1.09161  0.03509 -0.04846 -0.30680  0.000195  0.000086  0.002470     2.252
   1.09756  0.04014 -0.05161 -0.36244  0.000208  0.000092  0.002689     2.267
   1.10406  0.04575 -0.05489 -0.41463  0.000222  0.000098  0.002886     2.269
   1.11120  0.05201 -0.05833 -0.46386  0.000237  0.000104  0.002999     2.278
   1.11905  0.05899 -0.06192 -0.51019  0.000253  0.000111  0.003076     2.284
   1.12768  0.06676 -0.06567 -0.55377  0.000270  0.000118  0.003107     2.291
   1.13716  0.07539 -0.06958 -0.59464  0.000288  0.000125  0.003105     2.298
   1.14753  0.08494 -0.07363 -0.63277  0.000307  0.000133  0.003074     2.305
   1.15881  0.09542 -0.07780 -0.66811  0.000328  0.000142  0.003021     2.313
   1.17099  0.10684 -0.08205 -0.70062  0.000349  0.000151  0.002951     2.320
   1.18403  0.11915 -0.08635 -0.73026  0.000372  0.000160  0.002868     2.327
   1.19783  0.13227 -0.09063 -0.75708  0.000395  0.000169  0.002777     2.335
   1.21232  0.14613 -0.09487 -0.78116  0.000420  0.000179  0.002681     2.343
   1.22740  0.16062 -0.09903 -0.80266  0.000444  0.000189  0.002583     2.350
   1.24297  0.17565 -0.10308 -0.82176  0.000469  0.000199  0.002485     2.358
   1.25896  0.19115 -0.10700 -0.83869  0.000495  0.000209  0.002388     2.365
   1.27529  0.20705 -0.11077 -0.85366  0.000520  0.000219  0.002294     2.373
   1.29192  0.22327 -0.11439 -0.86688  0.000546  0.000229  0.002203     2.380
   1.30880  0.23979 -0.11787 -0.87855  0.000572  0.000240  0.002116     2.388
   1.32589  0.25656 -0.12119 -0.88885  0.000598  0.000250  0.002032     2.395
   1.34318  0.27355 -0.12436 -0.89793  0.000625  0.000260  0.001952     2.402
   1.36063  0.29074 -0.12739 -0.90594  0.000651  0.000270  0.001875     2.410
   1.37823  0.30810 -0.13028 -0.91299  0.000677  0.000280  0.001802     2.417
   1.39596  0.32562 -0.13303 -0.91920  0.000704  0.000290  0.001733     2.425
   1.41382  0.34328 -0.13566 -0.92467  0.000731  0.000300  0.001667     2.432
   1.43179  0.36107 -0.13816 -0.92947  0.000758  0.000311  0.001604     2.439
   1.44986  0.37899 -0.14054 -0.93368  0.000784  0.000321  0.001545     2.447
   1.46802  0.39701 -0.14280 -0.93736  0.000811  0.000331  0.001488     2.454
   1.48627  0.41513 -0.14496 -0.94056  0.000838  0.000341  0.001435     2.461
   1.50460  0.43335 -0.14702 -0.94335  0.000865  0.000351  0.001383     2.468
   1.52301  0.45165 -0.14897 -0.94575  0.000893  0.000361  0.001335     2.475
   1.54148  0.47003 -0.15083 -0.94782  0.000920  0.000371  0.001288     2.482
   1.56001  0.48847 -0.15260 -0.94957  0.000947  0.000380  0.001244     2.490
   1.57860  0.50699 -0.15428 -0.95104  0.000975  0.000390  0.001201     2.497
   1.59725  0.52556 -0.15588 -0.95224  0.001002  0.000400  0.001161     2.504
   1.61594  0.54419 -0.15741 -0.95321  0.001030  0.000410  0.001121     2.512
   1.63467  0.56287 -0.15885 -0.95395  0.001058  0.000420  0.001083     2.519
   1.65345  0.58159 -0.16022 -0.95447  0.001087  0.000430  0.001046     2.527
   1.67226  0.60036 -0.16152 -0.95478  0.001116  0.000440  0.001010     2.536
   1.69110  0.61916 -0.16274 -0.95488  0.001145  0.000450  0.000974     2.545
   1.70996  0.63799 -0.16390 -0.95477  0.001176  0.000460  0.000938     2.555
   1.72886  0.65685 -0.16500 -0.95444  0.001207  0.000470  0.000902     2.567
   1.74777  0.67573 -0.16603 -0.95387  0.001241  0.000481  0.000864     2.580
   1.76669  0.69464 -0.16700 -0.95304  0.001276  0.000492  0.000825     2.595
   1.78563  0.71355 -0.16790 -0.95192  0.001314  0.000503  0.000784     2.614
   1.80458  0.73248 -0.16874 -0.95044  0.001356  0.000514  0.000738     2.636
   1.82353  0.75142 -0.16952 -0.94856  0.001404  0.000527  0.000687     2.666
   1.84247  0.77035 -0.17023 -0.94617  0.001460  0.000540  0.000628     2.705
   1.86140  0.78926 -0.17089 -0.94315  0.001530  0.000554  0.000558     2.759
   1.88030  0.80815 -0.17147 -0.93937  0.001620  0.000571  0.000473     2.838
   1.89915  0.82699 -0.17200 -0.93474  0.001744  0.000589  0.000366     2.960
   1.91790  0.84574 -0.17245 -0.92937  0.001927  0.000610  0.000235     3.159
   1.93650  0.86434 -0.17284 -0.92403  0.002202  0.000631  0.000090     3.491
   1.95485  0.88268 -0.17316 -0.91996  0.002608  0.000647 -0.000034     4.030
   1.97279  0.90062 -0.17341 -0.91724  0.003159  0.000659 -0.000091     4.795
   1.99010  0.91793 -0.17358 -0.91571  0.003852  0.000666 -0.000095     5.784
   2.00650  0.93433 -0.17369 -0.91518  0.004670  0.000668 -0.000089     6.988
   2.02170  0.94953 -0.17374 -0.91530  0.005587  0.000667 -0.000085     8.381
   2.03544  0.96327 -0.17374 -0.91584  0.006612  0.000662 -0.000083     9.994
   2.04764  0.97547 -0.17370 -0.91658  0.007699  0.000654 -0.000082    11.770
   2.05698  0.98481 -0.17365 -0.90827  0.010116  0.000747 -0.000071    13.538
   2.05698  0.98491 -0.17367  0.90827  0.035838  0.010068  0.000000     3.560
   2.06632  0.99411 -0.17524  0.89938  0.030624  0.010599  0.000000     2.889
   2.07699  1.00464 -0.17694  0.89747  0.027864  0.010706  0.000000     2.603
   2.08916  1.01668 -0.17881  0.89762  0.025321  0.010698  0.000000     2.367
   2.10307  1.03043 -0.18086  0.89965  0.022970  0.010596  0.000000     2.168
   2.11894  1.04614 -0.18312  0.90346  0.020794  0.010414  0.000000     1.997
   2.13706  1.06409 -0.18560  0.90885  0.018816  0.010174  0.000000     1.849
   2.15775  1.08460 -0.18834  0.91543  0.017057  0.009900  0.000000     1.723
   2.18138  1.10803 -0.19136  0.92272  0.015528  0.009616  0.000000     1.615
   2.20835  1.13480 -0.19466  0.93027  0.014220  0.009341  0.000000     1.522
   2.23914  1.16538 -0.19828  0.93767  0.013115  0.009086  0.000000     1.443
   2.27430  1.20031 -0.20224  0.94468  0.012185  0.008858  0.000000     1.376
   2.31444  1.24022 -0.20655  0.95117  0.011405  0.008658  0.000000     1.317
   2.36027  1.28581 -0.21123  0.95709  0.010748  0.008483  0.000000     1.267
   2.41259  1.33788 -0.21631  0.96244  0.010195  0.008331  0.000000     1.224
   2.47232  1.39737 -0.22179  0.96725  0.009728  0.008199  0.000000     1.187
   2.54052  1.46531 -0.22769  0.97156  0.009336  0.008084  0.000000     1.155
   2.61839  1.54292 -0.23403  0.97540  0.009007  0.007984  0.000000     1.128
   2.70729  1.63156 -0.24079  0.97882  0.008732  0.007898  0.000000     1.106
   2.80879  1.73281 -0.24800  0.98184  0.008504  0.007823  0.000000     1.087
   2.92467  1.84844 -0.25565  0.98448  0.008316  0.007758  0.000000     1.072
   3.05698  1.98049 -0.26373  0.98726  0.008149  0.007691  0.000000     1.059
