#    s        x        y     Ue/Vinf    Dstar     Theta      Cf       H
   0.00000  0.98481 -0.17365  1.13201  0.340648  0.079950  0.000356     4.261
   0.00838  0.97703 -0.17051  1.13293  0.338311  0.079562 -0.006108     4.252
   0.01975  0.96648 -0.16629  1.13421  0.334338  0.079034 -0.005929     4.230
   0.03288  0.95428 -0.16146  1.13570  0.329757  0.078419 -0.005708     4.205
   0.04741  0.94074 -0.15616  1.13740  0.324659  0.077731 -0.005440     4.177
   0.06289  0.92631 -0.15058  1.13924  0.319248  0.076992 -0.005131     4.147
   0.07890  0.91134 -0.14486  1.14120  0.313656  0.076218 -0.004783     4.115
   0.09521  0.89609 -0.13912  1.14324  0.307975  0.075421 -0.004397     4.083
   0.11165  0.88067 -0.13338  1.14535  0.302262  0.074608 -0.003974     4.051
   0.12817  0.86517 -0.12769  1.14753  0.296546  0.073781 -0.003515     4.019
   0.14472  0.84961 -0.12205  1.14977  0.290838  0.072942 -0.003017     3.987
   0.16129  0.83401 -0.11648  1.15208  0.285147  0.072092 -0.002480     3.955
   0.17787  0.81837 -0.11096  1.15446  0.279477  0.071231 -0.001900     3.924
   0.19445  0.80271 -0.10551  1.15690  0.273830  0.070358 -0.001277     3.892
   0.21103  0.78703 -0.10012  1.15941  0.268207  0.069474 -0.000607     3.861
   0.22761  0.77133 -0.09479  1.16199  0.262605  0.068579  0.000114     3.829
   0.24420  0.75560 -0.08953  1.16465  0.257027  0.067672  0.000888     3.798
   0.26077  0.73986 -0.08434  1.16739  0.251473  0.066753  0.001718     3.767
   0.27735  0.72410 -0.07921  1.17021  0.245942  0.065822  0.002609     3.736
   0.29392  0.70832 -0.07414  1.17311  0.240435  0.064879  0.003564     3.706
   0.31048  0.69253 -0.06915  1.17610  0.234951  0.063924  0.004588     3.675
   0.32704  0.67672 -0.06422  1.17917  0.229487  0.062956  0.005689     3.645
   0.34358  0.66090 -0.05936  1.18234  0.224043  0.061976  0.006871     3.615
   0.36012  0.64507 -0.05457  1.18561  0.218622  0.060982  0.008139     3.585
   0.37665  0.62923 -0.04986  1.18898  0.213221  0.059976  0.009501     3.555
   0.39316  0.61338 -0.04522  1.19245  0.207839  0.058957  0.010967     3.525
   0.40967  0.59753 -0.04065  1.19603  0.202475  0.057925  0.012545     3.495
   0.42615  0.58166 -0.03616  1.19973  0.197129  0.056879  0.014246     3.466
   0.44262  0.56580 -0.03175  1.20354  0.191808  0.055820  0.016074     3.436
   0.45908  0.54992 -0.02742  1.20747  0.186503  0.054747  0.018050     3.407
   0.47551  0.53405 -0.02317  1.21153  0.181221  0.053661  0.020179     3.377
   0.49192  0.51817 -0.01902  1.21571  0.175961  0.052561  0.022479     3.348
   0.50831  0.50229 -0.01495  1.22003  0.170720  0.051447  0.024968     3.318
   0.52468  0.48642 -0.01097  1.22449  0.165508  0.050320  0.027654     3.289
   0.54101  0.47055 -0.00709  1.22909  0.160313  0.049179  0.030572     3.260
   0.55731  0.45470 -0.00331  1.23384  0.155132  0.048024  0.033757     3.230
   0.57357  0.43886  0.00037  1.23874  0.149962  0.046856  0.037245     3.201
   0.58977  0.42305  0.00393  1.24379  0.144817  0.045675  0.041054     3.171
   0.60589  0.40731  0.00737  1.24899  0.139696  0.044483  0.045235     3.140
   0.62188  0.39166  0.01067  1.25431  0.134630  0.043285  0.049784     3.110
   0.63778  0.37607  0.01380  1.25977  0.129628  0.042079  0.054707     3.081
   0.65362  0.36051  0.01677  1.26538  0.124681  0.040863  0.060052     3.051
   0.66940  0.34498  0.01959  1.27113  0.119793  0.039636  0.065850     3.022
   0.68513  0.32948  0.02223  1.27702  0.114957  0.038399  0.072162     2.994
   0.70080  0.31400  0.02471  1.28305  0.110175  0.037152  0.079046     2.966
   0.71642  0.29856  0.02701  1.28922  0.105452  0.035895  0.086546     2.938
   0.73197  0.28315  0.02912  1.29552  0.100783  0.034628  0.094748     2.910
   0.74745  0.26779  0.03105  1.30194  0.096174  0.033352  0.103716     2.884
   0.76286  0.25248  0.03278  1.30845  0.091623  0.032066  0.113549     2.857
   0.77818  0.23723  0.03430  1.31506  0.087111  0.030771  0.124470     2.831
   0.79341  0.22206  0.03561  1.32176  0.082613  0.029464  0.136829     2.804
   0.80853  0.20699  0.03670  1.32843  0.078203  0.028152  0.150344     2.778
   0.82351  0.19202  0.03756  1.33481  0.074217  0.026864  0.162218     2.763
   0.83835  0.17720  0.03818  1.34103  0.070658  0.025592  0.171251     2.761
   0.85301  0.16255  0.03854  1.34820  0.066407  0.024233  0.188024     2.740
   0.86743  0.14812  0.03864  1.35541  0.062143  0.022858  0.207560     2.719
   0.88157  0.13399  0.03847  1.36250  0.057920  0.021476  0.229890     2.697
   0.89532  0.12024  0.03802  1.36936  0.053757  0.020091  0.255475     2.676
   0.90857  0.10701  0.03729  1.37581  0.049679  0.018715  0.284810     2.654
   0.92119  0.09444  0.03630  1.38165  0.045694  0.017358  0.319135     2.632
   0.93299  0.08270  0.03507  1.38651  0.041884  0.016042  0.358226     2.611
   0.94384  0.07194  0.03365  1.39011  0.038296  0.014787  0.402331     2.590
   0.95363  0.06227  0.03208  1.39217  0.034968  0.013609  0.451444     2.570
   0.96234  0.05372  0.03042  1.39249  0.031923  0.012519  0.505445     2.550
   0.97002  0.04623  0.02872  1.39089  0.029158  0.011519  0.564116     2.531
   0.97677  0.03971  0.02701  1.38726  0.026657  0.010606  0.627485     2.513
   0.98270  0.03403  0.02530  1.38147  0.024396  0.009773  0.695307     2.496
   0.98794  0.02907  0.02361  1.37336  0.022343  0.009008  0.767636     2.480
   0.99259  0.02473  0.02193  1.36275  0.020470  0.008304  0.844519     2.465
   0.99676  0.02091  0.02027  1.34941  0.018750  0.007648  0.925926     2.452
   1.00051  0.01754  0.01862  1.33306  0.017156  0.007031  1.011685     2.440
   1.00393  0.01455  0.01697  1.31343  0.015657  0.006440  1.102495     2.431
   1.00705  0.01190  0.01532  1.28971  0.014131  0.005860  1.225214     2.411
   1.00993  0.00956  0.01365  1.25781  0.012614  0.005313  1.392210     2.374
   1.01259  0.00749  0.01197  1.21327  0.011418  0.004844  1.510239     2.357
   1.01508  0.00568  0.01026  1.15556  0.010228  0.004413  1.672058     2.318
   1.01741  0.00412  0.00852  1.08367  0.009472  0.004045  1.653140     2.342
   1.01961  0.00281  0.00676  0.99180  0.008236  0.003682  1.932760     2.237
   1.02170  0.00173  0.00497  0.88338  0.008108  0.003420  1.533053     2.370
   1.02368  0.00090  0.00317  0.74370  0.006679  0.003151  1.999271     2.120
   1.02558  0.00030  0.00137  0.59672  0.007357  0.002994  1.042032     2.457
   1.02740 -0.00007 -0.00041  0.41367  0.005628  0.002774  1.431322     2.029
   1.02924 -0.00023 -0.00225  0.25792  0.009275  0.003455  0.262921     2.684
   1.03116 -0.00016 -0.00416  0.10501  0.005525  0.002506  0.257716     2.205
   1.03315  0.00016 -0.00613  0.02466  0.086390  0.040175  0.001137     2.150
   1.03523  0.00075 -0.00813  0.02439  0.084061  0.038852  0.001198     2.164
   1.03742  0.00161 -0.01014  0.02408  0.081592  0.037353  0.001274     2.184
   1.03973  0.00273 -0.01216  0.02372  0.078478  0.035539  0.001376     2.208
   1.04219  0.00413 -0.01418  0.02328  0.074561  0.033269  0.001488     2.241
   1.04481  0.00580 -0.01620  0.02269  0.066620  0.030238  0.001876     2.203
   1.04764  0.00776 -0.01824  0.02272  0.086874  0.026858 -0.000116     3.235
   1.05069  0.01002 -0.02030  0.02214  0.026014  0.012149  0.008896     2.141
   1.05403  0.01261 -0.02239  0.01034  0.062007  0.026240  0.001264     2.363
   1.05769  0.01558 -0.02455  0.00043  0.010465  0.004694  0.000857     2.230
   1.06175  0.01897 -0.02677 -0.15560  0.010465  0.004694  0.221354     2.230
   1.06629  0.02287 -0.02909 -0.52740  0.005914  0.002712  1.525005     2.181
   1.07140  0.02736 -0.03153 -0.54484  0.029502  0.007037 -0.038422     4.192
   1.07720  0.03256 -0.03411 -0.51783  0.026361  0.010129  0.200560     2.603
   1.08383  0.03859 -0.03685 -0.51943  0.031557  0.012490  0.185520     2.527
   1.09143  0.04561 -0.03977 -0.52101  0.037715  0.014784  0.151330     2.551
   1.10014  0.05375 -0.04288 -0.64433  0.018331  0.009285  0.704974     1.974
   1.11004  0.06309 -0.04615 -0.75558  0.021514  0.009369  0.532539     2.296
   1.12115  0.07367 -0.04956 -0.80164  0.026590  0.011009  0.404410     2.415
   1.13339  0.08540 -0.05305 -0.82383  0.031800  0.012971  0.333379     2.452
   1.14659  0.09813 -0.05655 -0.83884  0.036522  0.014850  0.292497     2.459
   1.16057  0.11167 -0.06001 -0.85301  0.040202  0.016470  0.275572     2.441
   1.17515  0.12585 -0.06339 -0.86734  0.043331  0.017874  0.264716     2.424
   1.19017  0.14051 -0.06667 -0.88203  0.045931  0.019084  0.258913     2.407
   1.20554  0.15555 -0.06984 -0.89659  0.048293  0.020164  0.253685     2.395
   1.22118  0.17089 -0.07291 -0.91035  0.050635  0.021179  0.246984     2.391
   1.23703  0.18646 -0.07587 -0.92310  0.052943  0.022151  0.239902     2.390
   1.25305  0.20222 -0.07874 -0.93503  0.055116  0.023072  0.233907     2.389
   1.26922  0.21815 -0.08151 -0.94592  0.057335  0.023977  0.227070     2.391
   1.28551  0.23421 -0.08421 -0.95589  0.059526  0.024863  0.220471     2.394
   1.30191  0.25040 -0.08684 -0.96499  0.061706  0.025735  0.214001     2.398
   1.31840  0.26669 -0.08941 -0.97331  0.063857  0.026592  0.207872     2.401
   1.33498  0.28308 -0.09193 -0.98083  0.066049  0.027448  0.201513     2.406
   1.35163  0.29954 -0.09439 -0.98766  0.068226  0.028295  0.195465     2.411
   1.36835  0.31608 -0.09682 -0.99386  0.070400  0.029136  0.189636     2.416
   1.38512  0.33269 -0.09921 -0.99963  0.072477  0.029955  0.184648     2.420
   1.40194  0.34934 -0.10158 -1.00503  0.074487  0.030755  0.180190     2.422
   1.41879  0.36603 -0.10392 -1.01009  0.076444  0.031537  0.176094     2.424
   1.43565  0.38272 -0.10623 -1.01487  0.078334  0.032298  0.172401     2.425
   1.45245  0.39937 -0.10851 -1.01939  0.080168  0.033038  0.168997     2.427
   1.46922  0.41599 -0.11074 -1.02366  0.081958  0.033761  0.165813     2.428
   1.48599  0.43262 -0.11292 -1.02770  0.083725  0.034471  0.162742     2.429
   1.50279  0.44928 -0.11506 -1.03154  0.085470  0.035170  0.159784     2.430
   1.51960  0.46596 -0.11717 -1.03520  0.087182  0.035857  0.156997     2.431
   1.53645  0.48268 -0.11924 -1.03873  0.088840  0.036528  0.154475     2.432
   1.55331  0.49942 -0.12129 -1.04211  0.090468  0.037187  0.152082     2.433
   1.57020  0.51619 -0.12331 -1.04536  0.092078  0.037837  0.149762     2.434
   1.58711  0.53298 -0.12531 -1.04849  0.093660  0.038476  0.147559     2.434
   1.60404  0.54979 -0.12728 -1.05151  0.095210  0.039104  0.145482     2.435
   1.62099  0.56663 -0.12924 -1.05443  0.096731  0.039721  0.143516     2.435
   1.63796  0.58349 -0.13118 -1.05723  0.098244  0.040331  0.141572     2.436
   1.65494  0.60036 -0.13310 -1.05997  0.099711  0.040929  0.139796     2.436
   1.67193  0.61724 -0.13501 -1.06264  0.101141  0.041514  0.138149     2.436
   1.68894  0.63414 -0.13690 -1.06527  0.102522  0.042087  0.136664     2.436
   1.70596  0.65106 -0.13879 -1.06785  0.103868  0.042648  0.135278     2.435
   1.72298  0.66798 -0.14066 -1.07038  0.105178  0.043198  0.133991     2.435
   1.74002  0.68491 -0.14252 -1.07288  0.106452  0.043736  0.132799     2.434
   1.75706  0.70185 -0.14437 -1.07538  0.107662  0.044259  0.131791     2.433
   1.77410  0.71880 -0.14622 -1.07784  0.108854  0.044772  0.130807     2.431
   1.79115  0.73575 -0.14805 -1.08027  0.110016  0.045274  0.129879     2.430
   1.80821  0.75270 -0.14988 -1.08270  0.111143  0.045765  0.129029     2.429
   1.82526  0.76966 -0.15170 -1.08511  0.112229  0.046244  0.128272     2.427
   1.84231  0.78662 -0.15350 -1.08753  0.113265  0.046709  0.127627     2.425
   1.85937  0.80357 -0.15530 -1.08995  0.114265  0.047162  0.127052     2.423
   1.87641  0.82053 -0.15709 -1.09227  0.115346  0.047622  0.126193     2.422
   1.89345  0.83747 -0.15886 -1.09459  0.116368  0.048069  0.125482     2.421
   1.91046  0.85440 -0.16062 -1.09691  0.117342  0.048504  0.124882     2.419
   1.92745  0.87129 -0.16237 -1.09928  0.118212  0.048916  0.124541     2.417
   1.94435  0.88811 -0.16409 -1.10164  0.119066  0.049319  0.124193     2.414
   1.96111  0.90478 -0.16578 -1.10408  0.119783  0.049692  0.124170     2.411
   1.97757  0.92115 -0.16743 -1.10641  0.120565  0.050064  0.123883     2.408
   1.99344  0.93695 -0.16900 -1.10860  0.121364  0.050425  0.123449     2.407
   2.00831  0.95174 -0.17046 -1.11031  0.122510  0.050825  0.121944     2.410
   2.02166  0.96503 -0.17175 -1.11191  0.123365  0.051157  0.121077     2.411
   2.03312  0.97644 -0.17285 -1.11347  0.123845  0.051402  0.121000     2.409
   2.04153  0.98481 -0.17365 -1.11476  0.124020  0.051551  0.121347     2.406
   2.04153  0.98490 -0.17367  1.09836  0.464674  0.131497  0.000000     3.534
   2.04992  0.99307 -0.17560  1.09701  0.484388  0.132407  0.000000     3.658
   2.05957  1.00250 -0.17766  1.09698  0.461457  0.132424  0.000000     3.485
   2.07067  1.01337 -0.17993  1.09599  0.462314  0.133082  0.000000     3.474
   2.08345  1.02590 -0.18243  1.09483  0.463951  0.133855  0.000000     3.466
   2.09814  1.04032 -0.18519  1.09352  0.465763  0.134739  0.000000     3.457
   2.11503  1.05694 -0.18824  1.09202  0.467834  0.135752  0.000000     3.446
   2.13447  1.07608 -0.19161  1.09031  0.470135  0.136910  0.000000     3.434
   2.15682  1.09813 -0.19533  1.08839  0.472695  0.138233  0.000000     3.420
   2.18254  1.12351 -0.19942  1.08620  0.475559  0.139745  0.000000     3.403
   2.21211  1.15275 -0.20392  1.08374  0.478694  0.141468  0.000000     3.384
   2.24613  1.18641 -0.20884  1.08097  0.482118  0.143430  0.000000     3.361
   2.28526  1.22517 -0.21423  1.07785  0.485734  0.145659  0.000000     3.335
   2.33027  1.26979 -0.22010  1.07438  0.489413  0.148184  0.000000     3.303
   2.38204  1.32117 -0.22647  1.07052  0.492875  0.151028  0.000000     3.263
   2.44159  1.38031 -0.23338  1.06628  0.495583  0.154207  0.000000     3.214
   2.51009  1.44840 -0.24083  1.06199  0.491854  0.157459  0.000000     3.124
   2.58887  1.52678 -0.24884  1.05712  0.488950  0.161179  0.000000     3.034
   2.67949  1.61699 -0.25741  1.05217  0.480785  0.164990  0.000000     2.914
   2.78373  1.72083 -0.26656  1.04755  0.464707  0.168546  0.000000     2.757
   2.90362  1.84033 -0.27628  1.04404  0.438227  0.171204  0.000000     2.560
   3.04153  1.97785 -0.28656  1.04077  0.411478  0.173624  0.000000     2.370
